date,open,high,low,close,volume
2018-12-10,99.43,99.86,98.22,99.11,977
2018-12-11,99.99,101.02,98.28,98.67,1081
2018-12-12,100.1,100.94,99.75,99.93,1266
2018-12-13,100.42,101.27,99.51,100.32,1063
2018-12-14,100.04,100.96,99.13,100.34,1204
2018-12-17,99.84,100.65,98.04,98.64,2186
2018-12-18,99.43,100.27,97.27,97.94,1421
2018-12-19,98.28,98.84,95.27,95.59,1666
2018-12-20,95.51,96.15,93.67,95.01,1562
2018-12-21,94.76,96.61,93.51,93.55,2749
2018-12-24,92.86,92.86,89.67,89.7,1149
2018-12-26,89.72,92.0,89.72,91.77,2783
2018-12-27,90.7,92.48,90.01,92.37,3279
2018-12-28,92.6,93.91,92.05,92.7,3096
2018-12-31,92.82,94.07,92.66,94.07,1306
2019-01-02,92.55,92.73,89.45,90.18,3053
2019-01-03,88.97,90.21,88.26,89.09,5021
2019-01-04,90.1,91.9,89.29,91.07,2985
2019-01-07,90.6,93.49,90.58,91.95,3716
2019-01-08,92.82,94.1,91.76,93.52,1714
2019-01-09,93.86,94.2,93.21,93.48,1043
2019-01-10,93.14,94.82,93.13,94.58,1358
2019-01-11,94.67,94.75,93.43,94.73,1672
2019-01-14,94.28,94.85,93.74,93.96,1044
2019-01-15,93.97,95.4,93.9,94.81,1468
2019-01-16,94.82,95.35,94.39,94.71,1200
2019-01-17,94.39,96.17,94.38,95.93,1661
2019-01-18,96.1,97.97,95.88,97.69,1608
2019-01-22,97.42,98.25,95.12,96.44,2150
2019-01-23,96.7,97.77,96.25,97.38,1885
2019-01-24,97.25,98.06,96.71,97.13,953
2019-01-25,97.91,98.35,97.07,97.39,633
2019-01-28,97.39,98.51,97.27,97.88,1284
2019-01-29,97.42,98.42,97.42,97.94,1001
2019-01-30,98.1,98.8,97.62,97.96,2107
2019-01-31,98.0,99.28,97.24,99.12,1647
2019-02-01,99.33,99.98,99.04,99.55,1360
2019-02-04,99.42,99.89,98.52,99.85,761
2019-02-05,99.95,101.13,99.41,101.07,1965
2019-02-06,100.62,102.0,100.58,101.59,1364
2019-02-07,101.13,102.04,100.84,101.95,972
2019-02-08,101.57,102.31,100.96,101.39,1066
2019-02-11,101.88,102.45,101.24,101.7,1403
2019-02-12,102.3,102.69,101.73,102.32,1488
2019-02-13,102.71,103.51,102.26,102.8,1513
2019-02-14,102.24,103.03,101.55,101.77,1303
2019-02-15,102.32,102.46,101.34,101.94,1375
2019-02-19,101.84,102.03,101.26,101.55,2302
2019-02-20,101.47,102.66,101.31,102.26,1814
2019-02-21,102.3,104.0,100.64,103.12,3721
2019-02-22,102.48,103.55,101.24,102.05,1955
2019-02-25,102.27,102.61,101.11,101.56,2084
2019-02-26,101.21,101.67,100.93,101.31,2071
2019-02-27,102.02,102.3,100.79,101.41,2685
2019-02-28,101.26,102.05,100.97,101.73,1909
2019-03-01,102.21,102.21,100.68,100.81,1417
2019-03-04,101.25,102.15,100.63,101.61,1815
2019-03-05,101.68,102.27,101.32,101.47,1209
2019-03-06,101.53,102.02,100.43,100.49,738
2019-03-07,100.2,100.63,99.36,99.88,797
2019-03-08,99.21,100.62,99.21,100.47,871
2019-03-11,100.6,102.07,100.57,102.02,1041
2019-03-12,102.06,102.91,102.05,102.26,1013
2019-03-13,102.5,103.34,102.09,102.28,1674
2019-03-14,102.34,103.04,101.81,102.89,856
2019-03-15,102.92,103.58,102.58,103.05,1528
2019-03-18,103.22,103.84,102.85,103.71,745
2019-03-19,104.22,104.59,103.24,103.6,1233
2019-03-20,103.42,104.83,102.86,103.95,1118
2019-03-21,103.57,105.68,103.57,105.54,1165
2019-03-22,105.26,105.26,103.75,103.83,1471
2019-03-25,103.55,104.97,103.02,104.51,963
2019-03-26,105.0,106.38,104.7,105.44,1673
2019-03-27,105.52,106.49,105.13,105.52,1069
2019-03-28,105.76,106.39,105.42,106.19,788
2019-03-29,106.1,106.68,105.46,106.39,1646
2019-04-01,106.91,107.82,106.21,107.71,1482
2019-04-02,107.8,107.8,106.66,107.22,1111
2019-04-03,107.61,108.08,107.16,107.47,1208
2019-04-04,107.68,108.16,107.29,108.1,1076
2019-04-05,107.57,108.96,107.57,108.74,932
2019-04-08,108.65,109.27,107.98,108.99,901
2019-04-09,108.39,108.56,107.52,108.16,1182
2019-04-10,108.22,109.3,107.95,109.04,851
2019-04-11,109.29,109.86,108.97,109.66,1530
2019-04-12,109.95,110.7,109.79,110.31,1184
2019-04-15,110.34,110.5,109.48,109.89,1199
2019-04-16,109.81,109.97,108.76,109.62,1115
2019-04-17,109.68,109.75,107.59,107.7,973
2019-04-18,107.93,108.38,107.3,108.21,900
2019-04-22,108.25,109.37,108.25,108.93,1055
2019-04-23,109.03,110.53,109.03,110.06,1191
2019-04-24,109.97,110.86,109.94,109.94,848
2019-04-25,109.21,109.97,108.83,109.45,777
2019-04-26,109.71,111.65,109.7,111.42,901
2019-04-29,111.38,111.72,110.75,111.32,790
2019-04-30,110.75,111.81,109.93,111.24,1236
2019-05-01,112.27,114.66,111.55,112.81,2363
2019-05-02,112.81,113.12,111.62,113.0,2292
2019-05-03,113.3,114.14,112.72,113.85,2211
2019-05-06,112.54,115.52,112.54,115.02,1624
2019-05-07,113.98,114.68,113.13,113.97,859
2019-05-08,113.78,114.49,113.31,113.99,994
2019-05-09,113.38,113.79,112.76,113.0,1565
2019-05-10,112.72,113.71,112.18,113.6,1394
2019-05-13,111.91,113.17,111.29,112.8,1002
2019-05-14,113.39,114.36,112.89,112.98,825
2019-05-15,112.76,113.77,112.36,113.24,671
2019-05-16,113.38,114.5,113.25,114.11,1241
2019-05-17,113.49,114.46,113.49,113.78,964
2019-05-20,113.19,113.81,112.83,113.04,1054
2019-05-21,113.51,113.89,113.09,113.48,1002
2019-05-22,113.77,113.98,113.0,113.15,987
2019-05-23,112.54,113.69,112.03,112.96,732
2019-05-24,113.29,113.87,112.75,112.93,800
2019-05-28,113.04,113.62,112.69,112.9,1633
2019-05-29,112.54,113.44,112.28,112.7,1256
2019-05-30,112.73,113.63,112.54,113.51,832
2019-05-31,112.53,113.73,111.5,113.27,937
2019-06-03,113.41,115.0,113.41,114.03,1965
2019-06-04,114.7,115.98,113.68,115.72,3508
2019-06-05,115.9,117.18,115.41,117.13,3023
2019-06-06,117.21,120.39,117.21,120.23,2188
2019-06-07,120.0,122.6,119.92,121.92,3109
2019-06-10,122.19,123.28,121.63,123.22,1886
2019-06-11,124.0,124.45,121.21,122.58,2814
2019-06-12,122.99,122.99,121.19,121.62,1911
2019-06-13,121.5,122.1,120.31,120.72,1092
2019-06-14,120.46,120.51,119.57,120.09,1014
2019-06-17,120.04,120.84,119.78,120.17,794
2019-06-18,120.59,120.7,119.38,119.49,1348
2019-06-19,119.63,120.0,118.82,119.41,1706
2019-06-20,120.89,121.0,118.27,119.81,1795
2019-06-21,119.32,119.85,117.43,119.38,2731
2019-06-24,119.5,119.5,118.48,118.78,1053
2019-06-25,119.0,121.79,118.88,121.06,1675
2019-06-26,121.24,121.25,119.1,119.24,1092
2019-06-27,119.39,121.81,119.39,121.55,969
2019-06-28,121.62,124.75,121.62,124.34,2240
2019-07-01,125.0,126.2,123.12,124.27,2065
2019-07-02,124.37,124.71,123.22,123.54,2157
2019-07-03,124.0,125.92,124.0,125.92,913
2019-07-05,125.21,125.54,123.01,124.61,1476
2019-07-08,125.5,125.5,123.64,123.99,1110
2019-07-09,123.79,124.54,123.79,124.07,1518
2019-07-10,124.63,125.79,123.35,123.58,1066
2019-07-11,123.27,124.12,123.01,124.02,1334
2019-07-12,124.19,124.19,123.21,123.41,1476
2019-07-15,123.15,123.96,122.69,122.92,1197
2019-07-16,123.12,123.36,122.3,123.16,1565
2019-07-17,123.12,124.43,123.12,123.53,1721
2019-07-18,123.15,124.45,123.03,124.36,1121
2019-07-19,124.71,124.95,123.36,123.4,1452
2019-07-22,123.51,123.89,122.82,123.16,919
2019-07-23,123.89,124.71,123.38,124.51,1100
2019-07-24,124.01,124.55,122.84,123.29,1298
2019-07-25,123.0,124.28,122.67,122.92,1730
2019-07-26,123.13,124.77,122.93,124.49,1165
2019-07-29,124.45,125.66,123.54,124.94,1530
2019-07-30,123.8,124.57,122.96,123.81,1295
2019-07-31,123.49,123.86,119.94,121.02,2322
2019-08-01,120.19,120.19,114.84,117.56,3483
2019-08-02,116.61,118.34,115.65,118.02,1925
2019-08-05,116.44,119.03,116.25,117.08,2869
2019-08-06,117.55,120.81,117.38,119.72,2289
2019-08-07,119.1,122.26,118.7,121.66,1501
2019-08-08,122.48,124.0,121.59,122.87,1909
2019-08-09,122.74,123.23,121.05,121.08,1099
2019-08-12,121.02,121.68,119.92,120.04,835
2019-08-13,119.78,121.81,119.05,121.22,1320
2019-08-14,120.01,120.73,118.99,119.09,2550
2019-08-15,119.25,120.25,117.95,118.33,1368
2019-08-16,118.91,120.74,118.78,120.25,1182
2019-08-19,121.2,121.48,120.0,120.22,1462
2019-08-20,120.1,120.1,118.46,118.88,689
2019-08-21,119.66,119.83,118.89,119.33,2229
2019-08-22,119.83,120.72,119.04,120.54,1483
2019-08-23,120.55,121.33,119.89,120.26,1845
2019-08-26,120.72,121.23,119.9,120.99,1345
2019-08-27,121.48,121.83,120.81,121.5,1125
2019-08-28,121.49,122.14,120.63,121.86,1101
2019-08-29,122.88,123.45,121.15,121.69,1129
2019-08-30,122.38,123.32,121.23,122.22,1106
2019-09-03,120.81,121.08,118.57,119.65,1403
2019-09-04,120.73,122.05,120.19,121.94,884
2019-09-05,122.99,123.21,120.98,121.2,1366
2019-09-06,120.96,121.84,120.32,120.88,856
2019-09-09,121.57,121.57,118.77,119.1,1259
2019-09-10,118.98,119.32,116.12,119.11,1613
2019-09-11,118.9,119.53,116.72,118.63,1249
2019-09-12,119.08,119.7,117.98,118.05,944
2019-09-13,118.55,118.97,117.66,118.4,1802
2019-09-16,117.72,117.72,115.87,116.48,1079
2019-09-17,116.2,117.86,116.06,117.01,1245
2019-09-18,116.89,118.95,116.56,118.3,1495
2019-09-19,118.33,118.95,117.64,117.85,1742
2019-09-20,118.14,119.02,117.56,118.05,1625
2019-09-23,117.61,118.97,117.61,118.1,761
2019-09-24,118.6,119.49,118.25,118.51,975
2019-09-25,118.71,119.44,118.67,119.12,984
2019-09-26,119.57,119.68,118.51,118.92,628
2019-09-27,119.21,119.31,118.06,118.67,770
2019-09-30,118.95,119.41,117.84,118.45,1226
2019-10-01,119.29,119.73,117.5,117.67,723
2019-10-02,117.0,117.1,115.06,115.35,1051
2019-10-03,115.0,115.23,113.78,114.99,1383
2019-10-04,115.31,117.62,115.09,117.33,765
2019-10-07,116.69,117.45,116.23,116.56,701
2019-10-08,116.01,117.76,114.51,114.78,1468
2019-10-09,115.82,116.89,115.38,116.48,787
2019-10-10,116.48,117.24,115.73,116.31,528
2019-10-11,116.92,118.0,116.24,116.33,1204
2019-10-14,116.32,116.88,115.74,115.85,758
2019-10-15,116.34,116.64,115.05,115.18,999
2019-10-16,115.14,115.6,114.39,115.47,1182
2019-10-17,115.57,117.08,115.5,116.55,810
2019-10-18,116.42,118.0,116.42,117.78,781
2019-10-21,118.37,119.11,117.8,117.9,912
2019-10-22,118.03,118.05,116.62,116.66,466
2019-10-23,116.53,117.93,116.5,117.37,571
2019-10-24,117.45,118.13,116.74,117.34,674
2019-10-25,117.21,118.62,117.21,117.88,548
2019-10-28,117.96,118.8,117.84,118.2,679
2019-10-29,117.45,119.13,117.45,118.51,674
2019-10-30,118.58,119.63,117.77,119.25,688
2019-10-31,119.04,119.63,117.62,118.15,1160
2019-11-01,113.67,115.56,109.54,110.79,3601
2019-11-04,111.01,111.76,108.4,108.67,3335
2019-11-05,109.21,110.25,108.43,108.66,2142
2019-11-06,108.67,109.81,108.42,109.49,2327
2019-11-07,109.53,110.53,108.91,109.4,1009
2019-11-08,109.31,110.93,108.87,109.0,1480
2019-11-11,108.48,109.76,108.48,108.58,1097
2019-11-12,108.64,109.3,108.16,108.22,957
2019-11-13,108.32,110.07,108.02,109.62,2607
2019-11-14,109.48,110.58,109.48,110.47,1342
2019-11-15,110.73,110.73,109.7,109.96,1358
2019-11-18,109.92,110.95,109.88,110.34,2135
2019-11-19,110.73,111.4,110.45,110.5,1730
2019-11-20,110.12,111.85,110.12,110.7,7940
2019-11-21,111.23,112.05,110.18,111.3,1508
2019-11-22,111.65,111.67,109.99,110.12,787
2019-11-25,110.26,111.06,110.17,110.95,1587
2019-11-26,111.52,112.65,110.96,112.56,1398
2019-11-27,112.99,113.59,112.63,112.83,853
2019-11-29,112.64,113.21,111.94,112.12,417
2019-12-02,112.52,112.72,111.62,112.01,1551
2019-12-03,111.51,113.31,111.14,112.71,1251
2019-12-04,112.74,113.48,111.74,111.78,1294
2019-12-05,111.89,112.66,111.64,111.95,1244
2019-12-06,112.79,113.0,111.8,112.08,2070
2019-12-09,112.31,112.84,111.68,112.63,1617
2019-12-10,112.47,112.83,111.34,111.94,1179
2019-12-11,111.97,112.77,111.9,112.57,743
2019-12-12,112.51,114.44,112.51,114.18,2439
2019-12-13,113.98,115.39,113.33,113.97,2497
2019-12-16,114.46,114.71,113.3,114.32,906
2019-12-17,114.13,114.75,113.06,113.35,1082
2019-12-18,113.35,113.37,112.36,113.08,870
2019-12-19,113.16,113.48,112.8,113.26,770
2019-12-20,113.72,115.14,113.72,114.96,1715
2019-12-23,114.93,115.37,114.23,115.37,738
2019-12-24,115.31,115.64,114.68,114.73,301
2019-12-26,114.74,114.86,113.8,114.82,454
2019-12-27,115.22,115.35,114.15,115.02,365
2019-12-30,114.94,115.8,114.67,115.76,866
2019-12-31,115.72,116.2,115.02,115.62,1002
2020-01-02,115.5,116.48,112.93,113.68,2227
2020-01-03,112.81,114.84,112.81,114.04,1293
2020-01-06,113.66,114.49,113.56,114.05,1648
2020-01-07,113.56,114.01,112.74,112.91,1574
2020-01-08,113.08,114.18,113.08,113.22,1996
2020-01-09,113.77,115.06,113.32,114.66,2606
2020-01-10,114.66,116.17,114.57,115.79,1002
2020-01-13,115.49,116.56,115.37,116.2,1069
2020-01-14,116.25,116.32,115.14,116.13,801
2020-01-15,116.32,117.23,115.9,116.71,1255
2020-01-16,117.21,118.27,117.18,118.22,1086
2020-01-17,118.31,118.61,117.06,117.32,1229
2020-01-21,116.77,116.77,115.34,115.63,1031
2020-01-22,115.69,116.43,115.48,115.67,622
2020-01-23,115.33,119.02,114.77,117.37,1674
2020-01-24,117.4,118.16,116.62,117.12,1217
2020-01-27,115.54,117.26,115.22,116.49,1061
2020-01-28,116.41,116.58,115.57,115.97,1024
2020-01-29,115.91,117.08,115.53,115.94,1092
2020-01-30,115.02,117.01,114.33,116.54,891
2020-01-31,115.91,116.39,115.14,115.51,1245
2020-02-03,115.61,117.54,115.51,117.24,999
2020-02-04,117.79,118.49,116.2,116.95,1762
2020-02-05,117.14,118.29,116.75,117.87,1061
2020-02-06,118.05,118.95,117.46,117.53,975
2020-02-07,117.07,117.68,116.21,116.7,699
2020-02-10,116.42,117.1,115.47,115.8,770
2020-02-11,116.02,116.89,115.4,116.05,1085
2020-02-12,116.13,116.21,114.3,114.71,2924
2020-02-13,114.58,116.55,113.69,116.2,981
2020-02-14,116.6,117.75,116.16,116.67,1193
2020-02-18,116.47,116.63,115.08,115.26,1633
2020-02-19,115.37,116.62,114.72,115.01,1973
2020-02-20,114.61,115.67,113.74,114.93,2540
2020-02-21,111.48,114.65,109.16,111.98,4277
2020-02-24,110.5,111.21,109.17,109.21,2204
2020-02-25,109.22,109.57,106.71,106.94,4791
2020-02-26,104.0,106.56,102.77,104.68,3541
2020-02-27,103.4,104.76,101.95,102.4,3910
2020-02-28,99.73,102.21,99.31,101.07,4550
2020-03-02,101.62,103.76,100.81,103.58,1872
2020-03-03,103.79,105.72,102.2,102.76,1963
2020-03-04,105.39,107.63,104.44,107.44,1279
2020-03-05,105.34,105.8,102.64,103.98,1633
2020-03-06,101.61,107.41,101.33,107.3,3588
2020-03-09,102.74,105.0,99.47,101.45,3689
2020-03-10,103.6,103.99,99.38,103.99,2798
2020-03-11,101.67,101.67,97.92,99.08,4955
2020-03-12,92.48,96.4,87.5,94.4,6252
2020-03-13,98.08,99.44,91.12,96.39,3263
2020-03-16,87.4,94.48,87.4,87.88,4082
2020-03-17,89.95,96.95,89.48,96.45,3714
2020-03-18,91.69,96.98,90.34,96.75,4923
2020-03-19,96.49,101.22,93.59,98.88,2088
2020-03-20,98.81,99.99,89.13,92.51,5278
2020-03-23,92.06,93.24,79.84,83.93,4866
2020-03-24,87.27,88.32,82.69,88.06,3817
2020-03-25,89.0,93.66,86.22,90.18,4180
2020-03-26,90.85,97.34,90.21,96.2,2847
2020-03-27,94.54,95.84,92.1,94.0,3281
2020-03-30,94.97,100.96,94.37,100.48,2829
2020-03-31,100.52,102.75,97.44,99.54,3522
2020-04-01,97.71,98.68,95.44,96.21,1675
2020-04-02,95.81,97.14,94.12,96.15,2635
2020-04-03,94.88,97.42,93.36,94.19,2156
2020-04-06,97.07,101.18,97.07,100.76,3381
2020-04-07,103.55,103.55,99.22,101.12,1962
2020-04-08,102.65,105.29,100.64,104.11,2041
2020-04-09,105.04,108.03,104.23,107.27,2510
2020-04-13,106.99,107.43,102.3,102.35,1261
2020-04-14,104.56,105.37,103.36,104.02,1361
2020-04-15,102.28,104.19,100.61,100.93,2896
2020-04-16,103.03,103.03,99.68,101.85,1935
2020-04-17,103.86,105.02,102.4,102.94,1468
2020-04-20,101.86,107.94,101.13,106.94,5737
2020-04-21,105.85,106.99,104.11,106.12,2925
2020-04-22,106.99,107.04,104.12,106.3,2869
2020-04-23,106.62,107.32,104.95,105.02,2251
2020-04-24,105.41,105.41,103.09,104.12,1848
2020-04-27,109.33,114.1,106.88,112.58,2959
2020-04-28,112.6,114.66,110.99,111.18,1595
2020-04-29,112.56,113.63,109.82,110.08,1268
2020-04-30,108.99,110.07,106.34,107.08,3133
2020-05-01,110.56,110.56,104.71,106.14,3534
2020-05-04,105.53,107.33,105.08,106.81,2111
2020-05-05,106.78,107.63,105.4,105.56,1420
2020-05-06,106.77,107.05,104.76,104.86,1547
2020-05-07,105.52,106.89,105.14,105.47,1466
2020-05-08,106.58,107.99,106.56,107.53,1663
2020-05-11,106.66,107.51,106.08,106.31,1639
2020-05-12,106.43,106.43,103.85,103.95,1149
2020-05-13,103.39,103.39,101.64,102.42,1457
2020-05-14,101.01,102.62,99.11,102.46,1555
2020-05-15,101.47,101.7,100.04,101.5,1940
2020-05-18,104.07,105.15,102.95,104.15,1515
2020-05-19,103.79,105.75,103.16,103.73,1328
2020-05-20,104.45,105.52,104.08,104.41,664
2020-05-21,104.44,105.71,104.44,105.09,900
2020-05-22,104.97,105.25,103.71,105.1,787
2020-05-26,107.34,110.19,106.78,109.55,2004
2020-05-27,111.07,112.65,110.35,112.55,1538
2020-05-28,113.33,113.33,110.94,111.6,1407
2020-05-29,111.1,111.53,109.77,111.39,864
2020-06-01,111.28,111.88,110.6,111.42,1565
2020-06-02,111.75,112.47,110.94,112.07,1175
2020-06-03,112.7,114.1,112.7,113.28,1082
2020-06-04,113.5,113.5,111.01,112.14,839
2020-06-05,113.8,114.28,112.9,113.4,1107
2020-06-08,112.82,114.0,112.29,113.58,1200
2020-06-09,112.78,113.45,111.91,112.47,1728
2020-06-10,113.0,113.0,110.82,111.64,2181
2020-06-11,110.0,110.61,104.21,104.25,1850
2020-06-12,106.69,107.53,103.08,105.36,1126
2020-06-15,103.44,106.54,103.06,105.41,1270
2020-06-16,108.3,109.09,106.86,107.39,1273
2020-06-17,108.19,108.65,106.37,106.91,1102
2020-06-18,106.28,107.97,105.97,106.99,960
2020-06-19,107.21,107.99,106.1,107.6,1186
2020-06-22,106.94,107.67,105.5,107.55,1270
2020-06-23,108.46,108.46,106.92,107.44,1225
2020-06-24,106.58,107.52,105.85,105.94,3240
2020-06-25,105.41,107.63,103.78,107.6,1568
2020-06-26,107.12,108.69,106.17,107.72,2225
2020-06-29,108.24,110.19,107.89,109.25,909
2020-06-30,109.13,112.28,109.13,111.98,1911
2020-07-01,111.91,112.67,110.95,112.48,1304
2020-07-02,113.44,115.01,113.44,114.97,1492
2020-07-06,115.99,116.66,114.18,115.26,1439
2020-07-07,114.64,116.0,114.18,115.15,1883
2020-07-08,114.79,115.75,112.59,112.93,996
2020-07-09,113.16,114.14,111.4,113.76,1908
2020-07-10,114.17,115.17,112.39,114.95,1267
2020-07-13,114.96,116.27,113.27,113.43,1204
2020-07-14,113.76,116.5,113.69,116.31,1026
2020-07-15,117.44,118.29,116.54,117.9,1807
2020-07-16,118.04,118.49,116.8,117.24,1534
2020-07-17,118.0,119.71,117.34,119.4,1310
2020-07-20,119.4,119.75,118.27,119.29,1036
2020-07-21,119.58,119.87,117.67,118.18,2477
2020-07-22,118.25,118.98,117.41,118.5,2451
2020-07-23,118.39,119.23,118.09,118.44,1571
2020-07-24,119.0,119.79,118.38,118.85,1496
2020-07-27,118.83,120.45,118.5,119.85,1614
2020-07-28,119.81,119.81,117.78,118.05,1261
2020-07-29,118.72,119.41,117.33,118.81,1362
2020-07-30,117.75,118.91,116.7,117.91,2164
2020-07-31,115.0,117.9,111.22,115.2,3568
2020-08-03,116.61,119.68,114.85,118.66,1513
2020-08-04,118.95,120.18,118.22,118.62,1172
2020-08-05,119.56,120.67,118.22,118.36,862
2020-08-06,118.82,120.11,116.68,117.66,1450
2020-08-07,117.07,119.37,116.78,119.25,1147
2020-08-10,119.58,119.58,116.9,117.0,1102
2020-08-11,118.02,119.35,116.53,116.74,915
2020-08-12,116.92,118.57,116.75,118.09,966
2020-08-13,117.24,119.47,117.24,118.52,832
2020-08-14,117.88,119.64,117.7,118.49,621
2020-08-17,119.14,119.92,118.01,118.25,875
2020-08-18,117.91,118.64,116.77,117.88,894
2020-08-19,118.7,119.37,117.32,117.69,649
2020-08-20,117.06,118.13,116.6,117.55,820
2020-08-21,117.12,118.35,116.4,117.8,859
2020-08-24,118.2,119.76,118.2,119.11,1379
2020-08-25,119.54,119.54,117.93,118.13,583
2020-08-26,117.99,119.0,117.56,118.6,540
2020-08-27,118.63,120.62,118.5,120.05,1401
2020-08-28,119.7,119.7,118.0,118.13,1972
2020-08-31,118.58,119.16,117.78,118.39,661
2020-09-01,117.94,119.64,117.94,119.5,687
2020-09-02,119.75,122.44,118.97,122.26,774
2020-09-03,122.28,122.28,118.5,119.17,1384
2020-09-04,120.04,120.3,116.49,118.72,972
2020-09-08,118.13,118.13,116.04,116.06,777
2020-09-09,116.64,118.63,116.64,117.89,698
2020-09-10,118.17,118.91,116.71,117.19,1644
2020-09-11,117.88,118.71,117.13,118.36,513
2020-09-14,119.37,120.06,118.47,119.08,628
2020-09-15,119.44,119.8,118.12,118.33,599
2020-09-16,119.58,119.58,117.57,117.77,1019
2020-09-17,116.5,117.24,115.08,115.96,1637
2020-09-18,116.58,116.75,114.23,115.04,1560
2020-09-21,113.6,114.04,111.82,113.45,757
2020-09-22,113.97,114.67,113.56,114.33,1057
2020-09-23,114.2,114.53,111.71,112.14,867
2020-09-24,111.9,113.17,111.16,112.26,1360
2020-09-25,111.46,112.58,111.46,112.1,1380
2020-09-28,113.17,114.22,112.04,112.36,1181
2020-09-29,112.06,113.35,111.74,112.62,1356
2020-09-30,113.27,114.06,112.5,113.2,710
2020-10-01,113.45,114.97,113.14,113.7,736
2020-10-02,112.31,114.18,112.31,112.85,618
2020-10-05,113.36,114.93,113.21,114.55,614
2020-10-06,115.01,115.9,113.92,114.56,816
2020-10-07,115.09,116.17,114.5,114.98,436
2020-10-08,115.8,116.79,115.52,116.52,737
2020-10-09,118.12,118.39,116.18,116.81,833
2020-10-12,117.05,118.83,116.7,118.04,664
2020-10-13,117.73,118.91,117.25,117.56,727
2020-10-14,117.5,118.03,116.04,116.44,450
2020-10-15,114.72,116.59,114.22,116.34,635
2020-10-16,116.71,117.23,116.19,116.35,277
2020-10-19,116.64,116.64,114.58,115.15,450
2020-10-20,116.05,117.56,115.22,116.96,1070
2020-10-21,117.27,118.76,117.27,117.74,602
2020-10-22,117.89,118.48,116.74,118.31,605
2020-10-23,118.75,118.97,117.48,118.35,476
2020-10-26,117.35,117.49,115.93,117.46,538
2020-10-27,117.17,117.19,115.61,115.65,596
2020-10-28,114.11,114.61,112.25,112.34,837
2020-10-29,112.3,113.1,110.34,112.94,1303
2020-10-30,116.25,116.76,113.54,114.09,1928
2020-11-02,115.17,118.29,114.67,118.19,1196
2020-11-03,118.5,121.46,118.32,119.56,1258
2020-11-04,120.17,120.17,118.1,119.05,807
2020-11-05,120.61,123.1,120.43,122.91,990
2020-11-06,123.59,124.61,122.47,123.6,1031
2020-11-09,127.62,128.86,122.11,123.17,2128
2020-11-10,123.39,128.8,122.94,127.61,1827
2020-11-11,127.75,127.75,124.36,125.27,988
2020-11-12,124.24,125.21,122.59,124.27,477
2020-11-13,124.85,126.0,124.1,125.07,674
2020-11-16,126.28,127.0,125.57,126.86,1171
2020-11-17,125.89,128.1,125.7,127.36,980
2020-11-18,127.43,127.86,125.97,126.37,882
2020-11-19,126.7,127.62,126.0,127.23,1328
2020-11-20,127.51,128.36,127.19,127.81,1076
2020-11-23,128.06,129.12,126.4,126.86,682
2020-11-24,128.16,128.47,126.87,127.88,1447
2020-11-25,128.32,128.48,125.77,126.29,660
2020-11-27,126.55,127.3,126.08,127.24,244
2020-11-30,126.79,126.93,125.68,126.32,700
2020-12-01,127.15,128.58,126.42,127.82,758
2020-12-02,127.36,128.05,125.72,126.26,590
2020-12-03,126.07,127.11,125.15,125.87,448
2020-12-04,125.48,127.8,125.48,127.68,721
2020-12-07,127.99,128.99,127.64,128.63,491
2020-12-08,128.29,130.9,127.93,129.19,800
2020-12-09,129.13,130.18,128.66,129.53,623
2020-12-10,129.47,131.09,129.02,130.47,1094
2020-12-11,129.59,131.1,129.59,130.45,815
2020-12-14,131.05,131.99,128.2,128.41,1032
2020-12-15,128.56,130.65,128.31,130.26,846
2020-12-16,130.99,131.74,130.2,131.1,1722
2020-12-17,131.29,133.69,131.0,133.14,1955
2020-12-18,134.0,134.67,133.64,134.1,2235
2020-12-21,132.78,135.0,131.5,134.89,899
2020-12-22,134.65,136.22,134.01,134.5,1291
2020-12-23,134.52,135.75,134.45,134.53,1147
2020-12-24,135.0,136.37,134.65,135.7,548
2020-12-28,136.19,137.14,135.05,135.68,505
2020-12-29,136.27,136.75,134.83,135.31,353
2020-12-30,135.91,137.36,135.45,136.39,456
2020-12-31,136.77,137.32,135.61,136.89,749
2021-01-04,135.92,137.97,133.68,134.0,2002
2021-01-05,134.13,135.29,133.54,133.7,970
2021-01-06,134.22,137.97,134.22,137.72,1760
2021-01-07,137.77,140.0,136.5,139.7,936
2021-01-08,139.57,140.62,137.75,139.07,651
2021-01-11,139.5,139.87,138.38,138.79,537
2021-01-12,138.81,139.23,137.09,138.15,1097
2021-01-13,137.95,139.58,136.14,138.58,1301
2021-01-14,138.5,140.71,137.52,139.45,1136
2021-01-15,139.04,141.33,138.37,138.83,893
2021-01-19,139.58,140.62,137.25,137.26,1258
2021-01-20,137.73,140.75,137.49,140.62,1451
2021-01-21,140.27,141.13,138.01,138.11,1353
2021-01-22,137.86,138.38,137.11,138.19,1402
2021-01-25,138.16,139.92,137.85,139.57,968
2021-01-26,139.43,140.0,137.08,138.85,560
2021-01-27,137.53,137.53,133.15,133.25,849
2021-01-28,134.08,135.8,133.6,135.25,678
2021-01-29,134.43,135.36,131.82,132.97,1364
2021-02-01,134.13,134.39,131.8,134.09,1002
2021-02-02,135.05,138.12,134.74,136.94,1003
2021-02-03,136.16,137.3,135.38,136.56,687
2021-02-04,136.12,138.4,135.0,138.0,1526
2021-02-05,139.46,140.73,138.71,140.66,874
2021-02-08,141.25,142.0,140.53,141.98,917
2021-02-09,141.96,142.89,141.22,142.17,966
2021-02-10,143.0,144.11,142.5,143.25,582
2021-02-11,143.5,144.32,142.06,142.97,801
2021-02-12,142.38,144.76,142.38,144.63,571
2021-02-16,144.61,144.72,142.9,143.6,1118
2021-02-17,143.75,144.18,142.44,143.21,1081
2021-02-18,142.62,143.18,140.99,140.99,1051
2021-02-19,138.57,138.57,131.61,132.24,2982
2021-02-22,131.25,131.37,127.5,129.1,2006
2021-02-23,127.82,128.72,126.78,128.28,2625
2021-02-24,128.26,129.04,127.8,128.76,1181
2021-02-25,128.77,130.91,128.77,130.3,2516
2021-02-26,131.06,131.57,129.55,130.07,2382
2021-03-01,130.78,132.0,129.87,130.6,1934
2021-03-02,130.44,130.67,129.47,130.35,2247
2021-03-03,130.37,132.18,129.5,131.05,1060
2021-03-04,130.89,131.9,130.12,130.4,3660
2021-03-05,131.14,134.14,130.41,134.09,987
2021-03-08,134.83,138.48,134.1,137.71,1280
2021-03-09,138.68,140.67,137.68,137.69,1430
2021-03-10,138.21,140.12,137.93,139.38,806
2021-03-11,139.19,140.42,138.74,139.38,959
2021-03-12,140.0,141.24,139.26,140.77,1034
2021-03-15,141.78,143.03,141.01,142.13,2219
2021-03-16,141.71,142.1,139.33,140.5,1584
2021-03-17,139.91,141.74,139.37,141.28,850
2021-03-18,141.34,142.47,140.94,141.51,959
2021-03-19,142.06,142.33,139.04,139.31,1665
2021-03-22,138.97,141.86,138.26,141.59,1428
2021-03-23,140.53,142.56,140.16,140.77,1835
2021-03-24,141.16,144.33,141.16,141.84,1821
2021-03-25,141.4,143.23,140.45,142.47,1470
2021-03-26,143.0,144.82,142.19,144.82,1756
2021-03-29,144.24,145.9,143.39,144.77,1588
2021-03-30,144.33,144.41,142.6,143.08,1287
2021-03-31,143.03,143.47,141.23,141.67,2027
2021-04-01,141.99,143.98,141.38,143.87,1187
2021-04-05,144.95,144.95,143.34,144.69,1063
2021-04-06,144.04,145.99,143.32,145.97,1000
2021-04-07,145.28,145.5,143.38,143.59,1104
2021-04-08,143.8,143.96,142.19,143.68,807
2021-04-09,144.42,145.3,143.28,145.2,798
2021-04-12,144.68,146.38,144.68,146.21,360
2021-04-13,146.6,147.01,145.44,146.33,923
2021-04-14,144.5,146.15,144.5,145.81,972
2021-04-15,146.92,147.9,146.03,147.2,1027
2021-04-16,149.14,149.59,147.57,148.08,2268
2021-04-19,148.23,149.79,147.75,149.71,1050
2021-04-20,147.0,150.75,146.67,150.42,1155
2021-04-21,150.15,152.36,150.15,151.94,981
2021-04-22,152.02,152.02,149.94,150.07,2091
2021-04-23,150.29,151.74,149.83,151.45,915
2021-04-26,151.75,152.18,150.9,150.92,1327
2021-04-27,150.1,151.67,149.48,151.64,989
2021-04-28,151.43,153.07,151.05,151.12,1200
2021-04-29,151.44,152.15,150.4,150.92,1517
2021-04-30,150.0,151.94,147.9,150.81,2181
2021-05-03,152.16,153.2,151.74,152.46,1322
2021-05-04,152.89,156.14,152.89,155.02,1206
2021-05-05,155.3,155.3,153.39,154.18,1026
2021-05-06,154.13,156.63,153.64,156.52,1533
2021-05-07,155.55,157.93,155.55,157.56,1249
2021-05-10,157.74,158.98,155.39,155.48,1381
2021-05-11,154.55,155.66,153.72,153.99,1804
2021-05-12,153.61,154.55,151.61,151.61,873
2021-05-13,151.4,155.29,151.34,154.62,1783
2021-05-14,154.97,155.29,153.18,153.54,844
2021-05-17,153.11,154.09,152.23,153.11,692
2021-05-18,153.41,154.0,150.86,150.92,974
2021-05-19,150.0,151.04,148.6,149.54,815
2021-05-20,149.27,150.61,149.04,149.74,601
2021-05-21,149.93,150.58,148.88,149.63,530
2021-05-24,150.47,150.73,148.95,149.26,853
2021-05-25,149.64,150.12,147.47,147.73,860
2021-05-26,148.5,149.39,147.17,147.86,597
2021-05-27,148.62,149.15,146.48,146.77,653
2021-05-28,147.29,147.5,146.42,147.31,637
2021-06-01,147.98,148.81,146.61,146.88,820
2021-06-02,146.85,147.89,145.12,145.66,1961
2021-06-03,145.48,146.12,144.74,145.4,1209
2021-06-04,146.04,146.27,144.78,145.56,784
2021-06-07,145.53,146.09,142.03,142.52,970
2021-06-08,142.53,142.91,141.12,142.78,761
2021-06-09,142.57,143.21,141.64,142.17,800
2021-06-10,142.39,145.05,142.23,144.99,1029
2021-06-11,145.26,146.26,144.24,145.83,814
2021-06-14,146.0,146.0,143.07,143.49,1276
2021-06-15,143.54,144.91,143.36,144.33,1266
2021-06-16,144.45,145.19,142.44,142.62,777
2021-06-17,142.76,143.61,139.97,141.51,748
2021-06-18,140.75,141.9,139.91,140.1,1175
2021-06-21,140.98,142.2,140.17,141.58,1068
2021-06-22,141.89,142.66,141.16,141.63,863
2021-06-23,141.39,142.16,140.1,140.17,1435
2021-06-24,140.93,140.93,139.78,140.18,832
2021-06-25,140.18,141.49,140.11,140.92,3240
2021-06-28,141.08,141.42,139.73,140.71,1067
2021-06-29,140.81,141.97,140.06,140.28,827
2021-06-30,140.32,141.92,140.28,140.84,873
2021-07-01,141.11,141.7,140.9,141.12,1078
2021-07-02,141.48,141.94,140.05,140.41,567
2021-07-06,140.4,140.87,138.64,140.05,1297
2021-07-07,139.82,141.46,139.82,141.02,1140
2021-07-08,139.94,140.6,139.01,139.27,786
2021-07-09,139.85,141.28,139.76,141.18,780
2021-07-12,140.82,141.01,140.05,140.42,827
2021-07-13,140.21,141.21,138.36,138.5,1309
2021-07-14,138.67,139.15,138.01,138.44,836
2021-07-15,137.75,139.01,137.31,138.56,870
2021-07-16,139.01,140.35,138.4,139.04,796
2021-07-19,138.04,138.93,136.37,137.13,1464
2021-07-20,137.3,139.65,137.0,137.02,1252
2021-07-21,137.3,138.01,135.93,136.06,652
2021-07-22,136.33,136.74,134.66,134.67,869
2021-07-23,134.98,136.28,134.28,136.24,708
2021-07-26,136.76,137.13,135.9,136.72,872
2021-07-27,136.11,138.25,135.39,136.76,715
2021-07-28,136.52,137.82,136.22,137.65,722
2021-07-29,138.72,140.02,138.72,139.05,1950
2021-07-30,136.0,139.51,128.18,128.92,4309
2021-08-02,128.44,130.58,127.69,129.91,2534
2021-08-03,129.55,129.74,127.67,128.63,2661
2021-08-04,128.76,129.4,126.32,126.77,1860
2021-08-05,127.44,128.2,126.64,127.5,831
2021-08-06,128.08,129.46,127.92,128.43,1057
2021-08-09,128.7,130.74,128.62,130.08,1534
2021-08-10,129.31,131.21,128.95,129.2,1039
2021-08-11,130.19,132.32,129.17,131.63,1728
2021-08-12,132.54,133.6,131.91,132.68,1309
2021-08-13,132.89,133.89,132.51,133.05,829
2021-08-16,132.59,133.17,131.66,132.88,572
2021-08-17,132.33,133.14,131.6,133.01,503
2021-08-18,132.28,133.1,132.04,132.05,570
2021-08-19,131.44,132.96,131.4,132.41,414
2021-08-20,132.1,133.91,131.93,133.52,438
2021-08-23,134.17,134.55,132.49,132.96,507
2021-08-24,132.95,133.72,132.22,132.96,359
2021-08-25,133.08,134.5,132.94,134.13,400
2021-08-26,133.6,133.78,132.48,132.66,676
2021-08-27,133.35,134.95,133.3,134.53,720
2021-08-30,135.16,136.23,135.0,135.23,524
2021-08-31,135.56,135.95,134.22,134.8,631
2021-09-01,135.11,135.5,134.14,135.01,665
2021-09-02,135.5,136.22,134.23,135.14,918
2021-09-03,135.28,136.19,134.93,135.15,633
2021-09-07,134.72,134.72,130.93,131.08,697
2021-09-08,130.34,131.35,130.34,130.88,2012
2021-09-09,130.41,131.12,128.37,128.63,1307
2021-09-10,128.27,129.3,125.82,125.84,1754
2021-09-13,125.46,126.12,123.76,124.76,1596
2021-09-14,125.13,126.42,124.22,124.58,1056
2021-09-15,123.9,125.43,123.3,124.63,1004
2021-09-16,124.47,125.32,122.04,122.3,845
2021-09-17,122.2,122.64,120.72,121.23,1254
2021-09-20,119.76,121.88,119.54,121.86,1619
2021-09-21,121.96,122.32,119.83,120.06,1234
2021-09-22,120.38,121.21,119.44,120.28,1335
2021-09-23,120.84,121.66,120.28,121.01,917
2021-09-24,120.66,121.41,120.27,120.36,948
2021-09-27,120.18,121.13,119.79,120.33,1122
2021-09-28,120.37,120.87,118.88,120.03,1357
2021-09-29,120.0,121.29,120.0,120.38,1300
2021-09-30,120.79,121.43,119.3,119.35,1736
2021-10-01,119.84,122.32,118.61,121.58,1296
2021-10-04,121.5,122.65,120.99,122.29,1160
2021-10-05,121.88,122.87,120.62,121.66,1201
2021-10-06,121.07,123.24,120.45,123.1,1272
2021-10-07,123.28,126.04,123.23,124.26,1402
2021-10-08,124.59,125.09,123.76,124.51,1420
2021-10-11,124.47,126.21,124.27,124.57,1023
2021-10-12,124.12,125.21,123.85,124.49,452
2021-10-13,125.19,127.57,124.76,127.39,1381
2021-10-14,127.51,128.36,126.88,128.01,1044
2021-10-15,128.61,129.25,127.71,128.22,984
2021-10-18,127.64,128.69,126.91,127.82,940
2021-10-19,128.14,128.55,127.17,127.55,768
2021-10-20,127.26,128.76,126.93,128.16,937
2021-10-21,128.04,129.56,127.3,129.07,697
2021-10-22,128.61,129.79,127.68,127.77,666
2021-10-25,127.96,128.88,126.71,127.79,1239
2021-10-26,127.59,128.28,126.51,126.89,844
2021-10-27,126.5,127.2,125.28,125.32,1088
2021-10-28,125.1,126.34,125.1,125.98,1031
2021-10-29,123.42,125.43,119.9,120.78,2576
2021-11-01,119.98,125.67,119.98,125.18,3624
2021-11-02,125.86,128.11,124.5,127.4,1399
2021-11-03,127.49,128.5,126.17,128.4,1510
2021-11-04,128.52,129.78,128.36,128.55,1290
2021-11-05,129.5,131.66,129.13,131.5,2017
2021-11-08,131.95,132.27,129.07,130.64,1205
2021-11-09,130.22,131.47,129.74,130.36,757
2021-11-10,130.66,131.08,129.17,129.58,757
2021-11-11,129.77,130.5,128.73,129.83,683
2021-11-12,130.43,131.62,129.51,131.49,976
2021-11-15,132.42,133.0,130.8,132.32,1071
2021-11-16,132.26,135.81,132.0,134.24,2219
2021-11-17,134.49,135.2,132.61,134.45,1556
2021-11-18,134.14,134.14,129.51,129.64,1383
2021-11-19,129.67,131.52,129.47,130.15,992
2021-11-22,130.5,131.49,128.79,128.8,1591
2021-11-23,128.8,130.67,128.5,129.7,871
2021-11-24,129.34,130.08,127.71,128.18,1074
2021-11-26,126.51,129.09,126.34,126.61,1063
2021-11-29,128.05,128.3,125.49,125.87,1240
2021-11-30,124.69,125.44,119.32,119.59,2843
2021-12-01,120.67,122.43,116.67,116.79,5421
2021-12-02,117.32,120.7,116.94,119.65,3302
2021-12-03,119.64,120.71,117.63,118.8,2049
2021-12-06,120.23,121.22,118.83,120.22,4061
2021-12-07,121.2,121.74,119.77,120.28,2252
2021-12-08,120.6,121.27,119.46,120.82,943
2021-12-09,120.22,121.01,119.22,119.53,1033
2021-12-10,120.08,120.97,119.49,119.74,742
2021-12-13,119.47,120.62,118.27,118.61,952
2021-12-14,118.0,119.3,116.79,116.95,1275
2021-12-15,117.19,119.07,117.19,118.37,1639
2021-12-16,119.24,120.19,118.25,118.69,1303
2021-12-17,118.69,118.75,115.67,115.89,2781
2021-12-20,114.82,115.97,112.37,113.67,1367
2021-12-21,114.23,115.89,113.71,115.39,1378
2021-12-22,115.05,116.28,114.41,115.39,2105
2021-12-23,115.67,116.56,115.12,116.33,1063
2021-12-27,116.64,120.03,116.6,119.89,2118
2021-12-28,120.37,122.1,120.06,121.44,2772
2021-12-29,121.45,123.5,121.45,122.1,2623
2021-12-30,122.5,123.5,121.61,121.88,1356
2021-12-31,121.61,122.88,121.22,122.48,1138
2022-01-03,122.44,123.0,119.29,120.82,1088
2022-01-04,121.0,122.92,119.95,121.38,1516
2022-01-05,121.24,124.14,121.24,123.06,1757
2022-01-06,123.54,124.0,122.01,122.55,1106
2022-01-07,122.72,123.79,121.97,123.68,1591
2022-01-10,122.95,123.89,121.68,122.05,2491
2022-01-11,122.28,122.98,120.73,122.52,683
2022-01-12,122.32,123.0,120.62,121.3,1156
2022-01-13,121.67,122.33,120.37,121.67,992
2022-01-14,121.28,121.49,119.87,121.18,955
2022-01-18,120.61,121.4,118.83,120.37,1213
2022-01-19,120.76,121.9,120.5,121.42,1447
2022-01-20,120.82,122.31,118.81,118.83,1460
2022-01-21,119.22,120.07,115.83,116.38,1866
2022-01-24,115.59,117.25,114.03,117.03,1815
2022-01-25,114.72,116.94,113.1,116.03,2776
2022-01-26,115.78,117.55,114.41,115.19,3602
2022-01-27,115.78,118.3,112.67,113.65,1271
2022-01-28,113.83,115.1,112.45,115.05,1586
2022-01-31,115.01,117.34,114.23,117.3,1751
2022-02-01,117.09,118.93,116.45,117.48,1231
2022-02-02,116.7,117.02,116.01,116.62,2427
2022-02-03,116.44,117.38,114.91,115.19,842
2022-02-04,114.68,116.03,113.66,115.26,1256
2022-02-07,115.62,116.03,114.33,114.74,1220
2022-02-08,115.0,116.44,114.74,116.05,909
2022-02-09,117.08,117.66,116.2,116.55,1335
2022-02-10,115.52,117.25,113.66,114.61,1299
2022-02-11,115.04,116.44,112.87,113.71,1132
2022-02-14,113.71,114.51,112.43,114.1,1124
2022-02-15,114.66,116.13,113.4,114.1,1101
2022-02-16,114.25,115.08,113.1,114.7,1345
2022-02-17,113.96,116.26,113.31,115.61,2044
2022-02-18,116.28,121.52,114.42,118.44,2263
2022-02-22,118.5,120.18,117.32,119.1,2446
2022-02-23,119.74,120.31,117.6,117.69,1862
2022-02-24,116.27,117.34,114.72,116.87,2089
2022-02-25,117.16,121.6,116.82,120.97,1256
2022-02-28,119.47,122.03,119.28,121.88,1445
2022-03-01,121.96,122.94,118.53,119.1,1332
2022-03-02,119.09,120.06,118.0,118.38,2318
2022-03-03,118.88,119.75,117.41,119.33,686
2022-03-04,118.05,120.39,117.69,120.19,1097
2022-03-07,119.31,120.35,116.45,116.52,1765
2022-03-08,116.96,118.29,110.04,110.19,2059
2022-03-09,111.18,114.38,111.18,113.27,1205
2022-03-10,111.83,113.66,111.44,112.26,1264
2022-03-11,113.3,113.72,112.24,112.3,1060
2022-03-14,112.82,115.91,112.77,114.52,818
2022-03-15,115.09,116.93,114.09,116.81,926
2022-03-16,117.72,119.11,114.36,116.99,1354
2022-03-17,117.24,118.51,115.27,118.41,821
2022-03-18,118.1,118.83,116.27,117.74,971
2022-03-21,117.73,118.67,116.66,118.66,1847
2022-03-22,119.78,120.46,117.36,117.67,1337
2022-03-23,117.8,118.1,114.04,114.67,1334
2022-03-24,115.0,116.22,113.99,115.85,1212
2022-03-25,116.85,117.26,116.0,117.24,665
2022-03-28,117.43,117.58,115.01,116.49,834
2022-03-29,117.51,119.59,117.51,119.32,821
2022-03-30,119.57,119.57,118.24,118.82,745
2022-03-31,118.4,119.83,117.47,117.5,960
2022-04-01,118.15,119.64,117.29,119.02,1749
2022-04-04,118.72,118.72,115.2,118.41,1266
2022-04-05,117.65,119.21,117.59,117.73,731
2022-04-06,117.26,118.92,116.35,118.34,963
2022-04-07,117.91,120.6,116.63,120.0,1863
2022-04-08,119.81,122.23,119.81,121.41,1610
2022-04-11,121.13,122.3,118.96,118.96,1148
2022-04-12,119.23,120.19,116.39,117.01,783
2022-04-13,116.89,118.0,116.89,117.88,518
2022-04-14,117.42,118.7,116.96,117.4,745
2022-04-18,116.78,117.54,113.58,114.01,621
2022-04-19,114.57,117.64,113.51,117.23,1353
2022-04-20,117.98,119.75,117.33,119.5,629
2022-04-21,120.25,120.35,118.33,118.94,1072
2022-04-22,118.6,118.6,116.43,116.62,972
